Date,Open,High,Low,Close,Volume
2023-07-10 00:00:00-04:00,110.57328969426646,112.51523178790235,110.28053987996367,111.70527648925781,248000
2023-07-11 00:00:00-04:00,111.54913226880797,112.76894171954771,110.63184062453739,112.72015380859375,226700
2023-07-12 00:00:00-04:00,113.76432079304418,114.7108942045083,112.97387913407192,114.04731750488281,199400
2023-07-13 00:00:00-04:00,114.02780549205623,114.53525047972857,113.7448087576096,114.18394470214844,190200
2023-07-14 00:00:00-04:00,114.84751393241577,115.96973278965844,113.8814193847847,115.49156951904297,271600
2023-07-17 00:00:00-04:00,115.54037089475729,116.6528366937631,114.33032181331936,116.37960052490234,234200
2023-07-18 00:00:00-04:00,116.13562468178938,117.46277801021294,115.83310686382983,116.20393371582031,189100
2023-07-19 00:00:00-04:00,115.88190957896067,116.52597260796566,115.4525342262907,116.23321533203125,247200
2023-07-20 00:00:00-04:00,116.88704263422561,117.31641802788026,115.98926448851813,116.44791412353516,175800
2023-07-21 00:00:00-04:00,116.76016591954416,117.15050644552895,115.99900598869328,116.94557189941406,184300
2023-07-24 00:00:00-04:00,117.12123084191884,117.57988042536834,115.84287281197574,116.83824157714844,163400
2023-07-25 00:00:00-04:00,116.78945765900656,118.19468078509814,116.4186381985668,117.64820098876953,250700
2023-07-26 00:00:00-04:00,117.65798066599599,117.8929811915842,116.34587883452018,117.45234680175781,306900
2023-07-27 00:00:00-04:00,117.56005942712112,118.26506848937893,116.2675453031592,116.65921783447266,407800
2023-07-28 00:00:00-04:00,119.93947370819076,124.3457733334641,119.34217471689996,121.2026138305664,513000
2023-07-31 00:00:00-04:00,120.94801939009422,121.34948581028941,118.31403660573095,118.93091583251953,746500
2023-08-01 00:00:00-04:00,118.71550048370105,119.94926645902883,118.23570550961414,119.89051818847656,365300
2023-08-02 00:00:00-04:00,118.91132642820018,119.78279386739466,117.48172807322347,119.69466400146484,329200
2023-08-03 00:00:00-04:00,118.98965640950279,120.1744678571129,118.20631882667037,118.29444122314453,195900
2023-08-04 00:00:00-04:00,118.10840282862296,119.58695560114343,117.97131856455526,118.12798309326172,116500
2023-08-07 00:00:00-04:00,118.21612061088003,119.12675612142316,118.00070033325201,118.76445770263672,140300
2023-08-08 00:00:00-04:00,117.5796690487857,118.87218341333656,117.2173705825393,118.59801483154297,270100
2023-08-09 00:00:00-04:00,118.59800525218705,120.82073533550877,118.01049265804538,119.29322052001953,287500
2023-08-10 00:00:00-04:00,119.26385164969247,120.99699296143302,119.26385164969247,119.68489837646484,216000
2023-08-11 00:00:00-04:00,118.97987480014616,120.65426763532048,118.97987480014616,120.05696868896484,226500
2023-08-14 00:00:00-04:00,119.48905220458427,120.42906188964844,119.04842523270614,120.42906188964844,145700
2023-08-15 00:00:00-04:00,120.07654733191744,120.37030360241359,119.44008786339627,119.54779052734375,249000
2023-08-16 00:00:00-04:00,119.1952929614077,120.59551723323773,118.96028495778386,119.00924682617188,291100
2023-08-17 00:00:00-04:00,119.42050665772805,120.1059355028546,119.0875898387918,119.10717010498047,186600
2023-08-18 00:00:00-04:00,118.85258352186847,120.85010687566452,118.85258352186847,120.72281646728516,443100
2023-08-21 00:00:00-04:00,120.58573457242,121.86845496165125,120.4976046952374,121.2026138305664,358800
2023-08-22 00:00:00-04:00,121.29074940639424,123.09243286307708,120.20386151678522,120.38990020751953,429600
2023-08-23 00:00:00-04:00,120.49759408364648,120.98718288778355,119.76321087744086,120.82072448730469,305000
2023-08-24 00:00:00-04:00,120.91865794850577,122.84763930638971,120.03739648163831,122.50492858886719,278400
2023-08-25 00:00:00-04:00,122.95533436952645,125.0213997609113,122.3776231552361,124.88431549072266,493000
2023-08-28 00:00:00-04:00,124.97244291498995,126.88184384742746,124.97244291498995,126.71538543701172,331900
2023-08-29 00:00:00-04:00,127.09728247429959,129.2123101255637,126.70560238643532,129.07522583007812,472400
2023-08-30 00:00:00-04:00,129.61374821386556,130.48521577491113,128.95770094351138,130.1229248046875,298900
2023-08-31 00:00:00-04:00,130.50478320409923,130.9454101151941,129.4864451219896,129.79977416992188,305800
2023-09-01 00:00:00-04:00,130.3285439519304,131.00416394240628,129.7606191535497,129.7899932861328,252000
2023-09-05 00:00:00-04:00,128.93810967937057,129.2318659714668,124.70806987280828,124.9136962890625,325300
2023-09-06 00:00:00-04:00,125.12911743722739,125.34453025298038,123.5722210312277,123.7778549194336,291100
2023-09-07 00:00:00-04:00,123.66034559099784,124.52201922856145,122.53428980598378,122.74971008300781,328600
2023-09-08 00:00:00-04:00,122.89658463435944,124.03242678385861,122.51470596189114,122.70074462890625,238800
2023-09-11 00:00:00-04:00,124.34576108045958,125.2661904131661,123.77784375121408,124.36534881591797,333500
2023-09-12 00:00:00-04:00,123.48410237676948,124.63953238060523,122.80846736208028,123.89535522460938,258000
2023-09-13 00:00:00-04:00,123.16096518249655,123.95409669847723,122.50491794161049,122.75950622558594,279300
2023-09-14 00:00:00-04:00,123.38618404690735,124.6493241761477,123.38618404690735,124.12056732177734,217900
2023-09-15 00:00:00-04:00,123.85617551859224,124.55139073489096,122.56366135424925,123.3078384399414,589200
2023-09-18 00:00:00-04:00,123.72888911193036,123.72888911193036,122.31887089783527,123.02388000488281,175100
2023-09-19 00:00:00-04:00,123.07283690400115,123.07283690400115,121.47677260932005,122.70074462890625,218600
2023-09-20 00:00:00-04:00,123.21972391442361,123.47431222001649,121.96637759540222,122.03491973876953,206200
2023-09-21 00:00:00-04:00,121.74117558356731,121.76075585219738,119.64573572506934,119.67510986328125,335700
2023-09-22 00:00:00-04:00,119.7828081028874,120.34093908500026,119.56738781671527,120.12551879882812,341200
2023-09-25 00:00:00-04:00,119.44988188474487,121.5453215011337,118.94071278332304,121.45719909667969,258800
2023-09-26 00:00:00-04:00,120.95782504451137,121.6334600757803,120.66407620478861,121.0263671875,547000
2023-09-27 00:00:00-04:00,121.45720516183424,121.85866414194902,120.31156902352643,120.94802856445312,362400
2023-09-28 00:00:00-04:00,121.28095278036577,123.02388792356946,120.69344764352104,122.85742950439453,219300
2023-09-29 00:00:00-04:00,123.85618313230293,124.18910742947253,122.19158405805352,122.4363784790039,330900
2023-10-02 00:00:00-04:00,121.93699803305074,122.8672213322574,121.40824117751426,122.44617462158203,244100
2023-10-03 00:00:00-04:00,121.43760991527645,122.70074999115484,119.93946929311663,120.31156158447266,236300
2023-10-04 00:00:00-04:00,120.97740837386672,122.06429622345655,119.78281037914398,121.64324951171875,208200
2023-10-05 00:00:00-04:00,121.37885179796088,122.32865524488841,120.24300969098272,121.17322540283203,466700
2023-10-06 00:00:00-04:00,121.03615440939448,124.05202347633092,120.82073412310862,123.7778549194336,491700
2023-10-09 00:00:00-04:00,123.20013986350315,124.57099015928878,123.07284944988201,124.29682159423828,275700
2023-10-10 00:00:00-04:00,124.59057279283154,125.93204897791571,123.87577723045037,123.9051513671875,322000
2023-10-11 00:00:00-04:00,124.87452697753906,125.04098538840152,124.01285331789857,124.87452697753906,212900
2023-10-12 00:00:00-04:00,124.57098687998115,124.74723916294997,122.45595948435532,122.80846405029297,189300
2023-10-13 00:00:00-04:00,123.37638188519993,124.03242910705852,122.78887679890072,123.34700775146484,324900
2023-10-16 00:00:00-04:00,124.7080688483003,124.77661098648862,123.54284502856616,124.07160186767578,275200
2023-10-17 00:00:00-04:00,123.38618436449124,125.6676627333546,123.38618436449124,124.82557678222656,314400
2023-10-18 00:00:00-04:00,124.22827422350552,125.01161188059855,123.65055551101159,124.14014434814453,287300
2023-10-19 00:00:00-04:00,123.45472546934815,124.81578186655183,122.7790904698251,123.11201477050781,443900
2023-10-20 00:00:00-04:00,123.30785854264985,123.84640931164712,119.39114740967666,119.67510986328125,446500
2023-10-23 00:00:00-04:00,119.18551306674877,120.59553137167123,118.68613033866654,118.9700927734375,379000
2023-10-24 00:00:00-04:00,119.58697016792594,121.19282100306805,119.18551119440691,120.77177429199219,312100
2023-10-25 00:00:00-04:00,120.2805552330472,121.6068524283939,119.75003485581873,120.22161102294922,431300
2023-10-26 00:00:00-04:00,119.13109241479688,123.18858108214029,119.13109241479688,121.26299285888672,576000
2023-10-27 00:00:00-04:00,121.3022941399441,121.66579341986389,118.24689440654704,119.04267120361328,364000
2023-10-30 00:00:00-04:00,119.77950510126993,120.17248398520279,118.72829089663259,120.02511596679688,283100
2023-10-31 00:00:00-04:00,120.35915150950515,120.73247732943673,119.69108965063626,120.12335968017578,422900
2023-11-01 00:00:00-04:00,119.96617853675268,121.26300368019893,119.47495677794048,120.77178192138672,360500
2023-11-02 00:00:00-04:00,121.54790372576322,122.10789618734279,120.82089767811311,121.41036224365234,384300
2023-11-03 00:00:00-04:00,122.24543819207214,123.75840199720847,122.24543819207214,123.14928436279297,278000
2023-11-06 00:00:00-05:00,123.07069335974386,123.52262396358256,122.55982604017916,122.99210357666016,173500
2023-11-07 00:00:00-05:00,122.43210539742134,122.7956046767156,121.99000134779635,122.36333465576172,205000
2023-11-08 00:00:00-05:00,122.68753276518186,123.2868238567521,122.22579064954036,122.92332458496094,175800
2023-11-09 00:00:00-05:00,123.48331036884721,123.48331036884721,121.8917494008392,122.20613098144531,118600
2023-11-10 00:00:00-05:00,122.05877485812418,123.58156523784845,121.71492114202644,123.5127944946289,195600
2023-11-13 00:00:00-05:00,123.1885833000563,123.27700710797728,122.18649428145999,122.34368133544922,183100
2023-11-14 00:00:00-05:00,123.73874841871877,125.61521898919212,123.10998521599805,125.60539245605469,267400
2023-11-15 00:00:00-05:00,125.57592674450702,126.53872466387399,125.11417710437433,125.46785736083984,388600
2023-11-16 00:00:00-05:00,125.40889652352818,126.36186028746707,124.6131123042593,125.31065368652344,217000
2023-11-17 00:00:00-05:00,126.30293481874958,126.81380963966866,125.36961648559422,125.68399810791016,162700
2023-11-20 00:00:00-05:00,125.21240885286147,125.40890203094811,124.21031987868878,125.0846939086914,213900
2023-11-21 00:00:00-05:00,125.22224073958652,126.04749713193812,124.96680334487667,125.66434478759766,160600
2023-11-22 00:00:00-05:00,126.19484837134952,126.93168090172824,125.12398869168086,126.31275177001953,174800
2023-11-24 00:00:00-05:00,126.70573026619081,126.70573026619081,125.85100927985366,126.27345275878906,65900
2023-11-27 00:00:00-05:00,125.57592807855004,126.0475042573301,124.62295668269691,124.77032470703125,367500
2023-11-28 00:00:00-05:00,124.770319936511,124.78014646987734,123.28682820704415,123.40472412109375,218000
2023-11-29 00:00:00-05:00,123.43419411587203,124.18085323452591,122.72683363456295,123.16893768310547,331800
2023-11-30 00:00:00-05:00,123.24754084663824,124.8980463171162,122.61877757173706,124.66226196289062,301000
2023-12-01 00:00:00-05:00,124.20050037603545,126.28327571350668,124.20050037603545,125.85101318359375,218300
2023-12-04 00:00:00-05:00,125.21242621069801,126.61732826856792,124.66226022668417,126.16539764404297,192000
2023-12-05 00:00:00-05:00,125.99836990495382,126.43064741272292,123.66997627735459,123.77804565429688,178000
2023-12-06 00:00:00-05:00,124.17102038684357,125.06504747621422,123.66997215548805,124.15137481689453,179500
2023-12-07 00:00:00-05:00,124.02366098421446,124.87838949754877,123.778050117843,124.26927185058594,254000
2023-12-08 00:00:00-05:00,124.14154914022053,125.26153402124521,123.41454311992081,125.0846939086914,265800
2023-12-11 00:00:00-05:00,125.02575194465152,125.43837638285915,124.12189830014391,125.33030700683594,338000
2023-12-12 00:00:00-05:00,125.40890353540424,125.85100756981659,124.45593222273472,125.24188995361328,210300
2023-12-13 00:00:00-05:00,124.94715611793896,126.72538382870464,124.94715611793896,126.3323974609375,425000
2023-12-14 00:00:00-05:00,126.81380488974668,127.72747012109504,124.65242475876305,125.16329956054688,412900
2023-12-15 00:00:00-05:00,124.92751017088551,126.32257804273722,123.75840009050845,123.76822662353516,713000
2023-12-18 00:00:00-05:00,124.48540807991996,124.97662980267023,123.66997822124684,124.81944274902344,240500
2023-12-19 00:00:00-05:00,125.46785954591101,125.88049151593958,123.81735415214416,124.01384735107422,659100
2023-12-20 00:00:00-05:00,123.80752166917647,124.7113753499248,123.25735572950695,123.36542510986328,346400
2023-12-21 00:00:00-05:00,124.0236558949964,124.0236558949964,122.65806013364309,123.69945526123047,421900
2023-12-22 00:00:00-05:00,124.1808611863215,124.8096244332032,123.9057782027419,124.05313873291016,312200
2023-12-26 00:00:00-05:00,123.92541994837326,124.64260698665971,123.38507303627736,123.62086486816406,274700
2023-12-27 00:00:00-05:00,123.90576938796669,124.2496230929791,122.83490214041532,123.08051300048828,283100
2023-12-28 00:00:00-05:00,122.7857837186549,123.59138703497504,122.21596472784468,123.00191497802734,343600
2023-12-29 00:00:00-05:00,122.99210488855167,123.15911848562838,121.39071717702447,121.44966888427734,313500
2024-01-02 00:00:00-05:00,120.45739218670087,121.92123083069383,120.14301058204234,120.72264862060547,313100
2024-01-03 00:00:00-05:00,122.95279879868819,125.02575506993537,120.98791190616564,123.15911102294922,531700
2024-01-04 00:00:00-05:00,122.98226832433912,123.70927436060433,121.95069972921334,122.03912353515625,353300
2024-01-05 00:00:00-05:00,121.60684577583295,122.1864912933992,120.83071457172302,122.01947021484375,423000
2024-01-08 00:00:00-05:00,121.89175663717921,122.96262387858073,120.22160579645403,122.16683959960938,352400
2024-01-09 00:00:00-05:00,121.53807886950094,122.4517515820998,120.81107281182024,122.44192504882812,250300
2024-01-10 00:00:00-05:00,122.27491652708478,123.21806138313048,122.04895872061446,122.99210357666016,279600
2024-01-11 00:00:00-05:00,123.17874698314576,124.74083583845618,122.74647699742273,124.61311340332031,323100
2024-01-12 00:00:00-05:00,125.64468598540478,125.72328325641186,123.70927128568322,124.21031951904297,231700
2024-01-16 00:00:00-05:00,123.66998356740434,124.59348284464058,123.30648427394249,124.58365631103516,257500
2024-01-17 00:00:00-05:00,123.72892671234966,125.03557076439834,123.67980154317067,124.46575927734375,336900
2024-01-18 00:00:00-05:00,125.08471003190886,127.72747803264978,124.09243996715223,126.87275695800781,444200
2024-01-19 00:00:00-05:00,127.43275648636657,129.15203265865975,126.28328436775698,128.5036163330078,418000
2024-01-22 00:00:00-05:00,128.60183229281478,129.49585936536747,128.26780514182684,128.88674926757812,266200
2024-01-23 00:00:00-05:00,129.486046085073,129.53517125437793,128.0418530547107,129.51551818847656,217800
2024-01-24 00:00:00-05:00,129.80041832337395,129.96743190389776,128.24815593916261,128.48394775390625,294400
2024-01-25 00:00:00-05:00,129.71201395837323,130.05587517934185,128.090988181574,128.94570922851562,332300
2024-01-26 00:00:00-05:00,129.36814905715337,130.26217621352012,129.09306608456325,129.38780212402344,219900
2024-01-29 00:00:00-05:00,128.74923233991393,130.2621888357632,128.1990663414233,129.92816162109375,187800
2024-01-30 00:00:00-05:00,129.71202283727257,130.75341061882972,129.319051407179,129.92816162109375,228400
2024-01-31 00:00:00-05:00,130.450479837803,130.84468840598143,127.28703690483715,127.99659729003906,537500
2024-02-01 00:00:00-05:00,128.56817638731502,129.2087445739867,127.73049641626626,128.6075897216797,298800
2024-02-02 00:00:00-05:00,128.07540969833653,128.81453367734062,126.8238222167185,128.21337890625,344800
2024-02-05 00:00:00-05:00,127.25743930432108,129.5437882417416,126.19309900952496,128.75538635253906,319500
2024-02-06 00:00:00-05:00,128.5878562031737,129.49451313242858,127.42497504527576,129.2284393310547,369700
2024-02-07 00:00:00-05:00,129.5043890149799,130.4997372979964,127.49396322673662,129.88873291015625,393000
2024-02-08 00:00:00-05:00,129.7310511277826,132.8846440298333,129.6324952406022,130.20408630371094,620700
2024-02-09 00:00:00-05:00,130.19425768485192,137.19130575036152,129.6029523416327,136.94493103027344,650900
2024-02-12 00:00:00-05:00,137.14201279931714,138.433013785376,135.51593080207218,135.61448669433594,491300
2024-02-13 00:00:00-05:00,134.70782042711286,135.33853899697448,133.02261102462185,133.95883178710938,275900
2024-02-14 00:00:00-05:00,134.2840549506511,135.4666654867344,133.2098649166425,135.1808624267578,335000
2024-02-15 00:00:00-05:00,135.18084293177498,135.8115614425527,132.61855556065356,133.08172607421875,471400
2024-02-16 00:00:00-05:00,133.4069409055466,135.99880704012784,133.08172456247053,135.5060577392578,453900
2024-02-20 00:00:00-05:00,135.1512970957319,138.10779332653033,134.9640499284452,137.66432189941406,373000
2024-02-21 00:00:00-05:00,137.06316111497912,138.0782235738256,136.97446984090908,137.96981811523438,276300
2024-02-22 00:00:00-05:00,138.43300410397248,140.35472356857628,138.03881063752135,139.4185028076172,295700
2024-02-23 00:00:00-05:00,139.91125921114008,139.9901009159074,138.56113073110407,139.3101043701172,190300
2024-02-26 00:00:00-05:00,139.44807657219988,139.99995347983963,138.75823043765016,139.8619842529297,199200
2024-02-27 00:00:00-05:00,139.8619832061924,140.11820747210243,137.77273063218715,138.27532958984375,244600
2024-02-28 00:00:00-05:00,137.624882241888,139.19183654421676,137.3095304893076,138.37387084960938,189600
2024-02-29 00:00:00-05:00,138.59067443881426,139.57617304954317,137.80227254272802,138.4231414794922,250600
2024-03-01 00:00:00-05:00,137.85155695472363,138.7483493040915,137.53619016647232,138.25559997558594,151400
2024-03-04 00:00:00-05:00,138.6498253068903,140.05908133963348,138.5217056539071,139.9014129638672,260300
2024-03-05 00:00:00-05:00,140.20688768322975,141.13325875771014,139.68457463698275,140.45326232910156,190200
2024-03-06 00:00:00-05:00,140.8573465324722,141.55705734797917,140.41387504765316,140.99533081054688,184000
2024-03-07 00:00:00-05:00,142.4045646302837,143.03528320776834,141.75413186795097,142.55238342285156,250100
2024-03-08 00:00:00-05:00,142.6115328729506,142.96631302978489,140.89675960866532,141.0150146484375,185200
2024-03-11 00:00:00-04:00,140.7193526266208,141.3008082875969,139.92110108636018,140.6700897216797,226700
2024-03-12 00:00:00-04:00,140.72923835800594,140.77851630785935,139.42837266196696,140.3448944091797,242200
2024-03-13 00:00:00-04:00,140.9263206753992,140.9263206753992,138.88633105320847,139.11300659179688,336800
2024-03-14 00:00:00-04:00,139.3100942742079,139.56631851799472,138.32459559231268,138.88632202148438,235200
2024-03-15 00:00:00-04:00,138.00925201412244,140.34489450866278,137.7136143898304,138.95533752441406,599500
2024-03-18 00:00:00-04:00,138.8863359691105,139.25098074354233,136.91533840738313,137.2405548095703,299700
2024-03-19 00:00:00-04:00,136.86606923973204,138.28518982528496,136.86606923973204,137.48692321777344,253000
2024-03-20 00:00:00-04:00,137.6051958733663,138.03881773125624,137.12229607025841,137.9402618408203,220000
2024-03-21 00:00:00-04:00,138.27531130460437,139.5466129669124,137.27996309507742,139.09327697753906,255800
2024-03-22 00:00:00-04:00,139.9506660756091,140.38428791302655,139.00459573716816,139.53675842285156,276000
2024-03-25 00:00:00-04:00,139.1524145060762,141.96109183775224,139.12285074784947,140.88690185546875,316300
2024-03-26 00:00:00-04:00,140.7587833731205,142.2173172619055,140.5518220263084,141.1234130859375,314200
2024-03-27 00:00:00-04:00,141.58659150795893,143.04512532280722,141.58659150795893,142.56224060058594,218200
2024-03-28 00:00:00-04:00,142.71992736201685,143.24224046419658,141.56688066284775,141.80340576171875,247800
2024-04-01 00:00:00-04:00,141.7048563777047,141.7048563777047,140.05907529605102,140.2266082763672,204400
2024-04-02 00:00:00-04:00,139.78314334496693,139.78314334496693,138.3541731214831,138.5906982421875,202600
2024-04-03 00:00:00-04:00,138.63010529945612,139.14256885235136,137.84170330365973,138.83706665039062,258700
2024-04-04 00:00:00-04:00,139.7732997180687,140.6799568297371,138.9257701297128,139.6944580078125,403600
2024-04-05 00:00:00-04:00,139.3298280875975,140.68980623469986,138.9060557751715,139.67474365234375,288300
2024-04-08 00:00:00-04:00,139.61559417063526,140.31530483981658,138.35415708149162,138.472412109375,312500
2024-04-09 00:00:00-04:00,138.38373505571295,139.0538820367729,137.33910876871033,138.27532958984375,242600
2024-04-10 00:00:00-04:00,136.96460188175874,138.18662565441278,136.44228878609192,137.37850952148438,200700
2024-04-11 00:00:00-04:00,137.24053135191642,138.00921906660173,136.44227988185978,137.1124267578125,265300
2024-04-12 00:00:00-04:00,136.16635364365874,136.93504142704782,133.98840993656194,135.21041870117188,299200
2024-04-15 00:00:00-04:00,136.59998094394018,137.78257642435912,135.831293129792,136.1959228515625,319600
2024-04-16 00:00:00-04:00,135.79187443363656,137.36867854487903,135.36811716328225,136.5802764892578,281700
2024-04-17 00:00:00-04:00,136.86607085566382,137.4573610816138,136.3437577225251,136.3930206298828,565400
2024-04-18 00:00:00-04:00,136.383152199295,137.41792874853402,136.21561923989677,137.09271240234375,246600
2024-04-19 00:00:00-04:00,137.04345851609932,137.89098807195793,136.7576704852075,137.31939697265625,276600
2024-04-22 00:00:00-04:00,137.52634854728737,139.1031374671896,137.23069592558164,138.28518676757812,298800
2024-04-23 00:00:00-04:00,137.74315074279073,139.11299326699574,137.49677607989403,138.1176300048828,417200
2024-04-24 00:00:00-04:00,138.3252052267538,139.2641728987502,138.01880667836275,138.38450622558594,559200
2024-04-25 00:00:00-04:00,138.2164869501743,139.61012080220002,137.3071697430645,138.5525360107422,694400
2024-04-26 00:00:00-04:00,140.35140906659285,146.7858238697633,140.25256401346837,141.6659698486328,489500
2024-04-29 00:00:00-04:00,143.21771384275704,146.30150108937534,142.69386831682434,144.6805419921875,676700
2024-04-30 00:00:00-04:00,144.04799239590258,144.4038134692377,142.3874890264596,142.7037811279297,585100
2024-05-01 00:00:00-04:00,143.30669762253223,145.50092502858575,142.90145402915357,143.69216918945312,359600
2024-05-02 00:00:00-04:00,144.0677450672376,145.0264847341262,143.60320048300758,144.22589111328125,356500
2024-05-03 00:00:00-04:00,145.40208037385878,145.42185240037037,143.15843043637014,145.10556030273438,303300
2024-05-06 00:00:00-04:00,146.04452367508338,147.34920591709732,145.45149863187083,147.30966186523438,260200
2024-05-07 00:00:00-04:00,146.59804076734778,148.63412215328805,146.59804076734778,147.98178100585938,392900
2024-05-08 00:00:00-04:00,147.98179789031718,149.1184407100951,147.74457878737573,149.03936767578125,223500
2024-05-09 00:00:00-04:00,149.24692001837852,149.96844064064197,146.90444007335316,147.34921264648438,299100
2024-05-10 00:00:00-04:00,147.2207185551232,147.2701410818809,146.3707023724589,146.7660675048828,186300
2024-05-13 00:00:00-04:00,146.80558512538278,147.74455273462146,145.15497541444736,146.1532440185547,167500
2024-05-14 00:00:00-04:00,146.57827224039076,146.58815071317403,145.75790655024377,146.1829071044922,137600
2024-05-15 00:00:00-04:00,146.2422120158244,146.61779001419336,145.06602533402716,145.57009887695312,211100
2024-05-16 00:00:00-04:00,145.65904763240414,146.18289319117835,144.72995850351808,145.8270721435547,235500
2024-05-17 00:00:00-04:00,146.13349974670976,146.44977677398074,145.4218575833027,145.95558166503906,169500
2024-05-20 00:00:00-04:00,145.8764847652631,146.68697185047816,145.33286721806215,146.4497528076172,163400
2024-05-21 00:00:00-04:00,146.22245107343298,146.95385018155162,145.38231335657264,146.86489868164062,280400
2024-05-22 00:00:00-04:00,146.35094920050943,147.10212034902614,145.75790902740175,147.0625762939453,283300
2024-05-23 00:00:00-04:00,146.93409410507917,147.22072063370035,145.8468588276101,146.0050048828125,171700
2024-05-24 00:00:00-04:00,146.7561685854822,147.10211117850153,145.6491764184397,146.37069702148438,162300
2024-05-28 00:00:00-04:00,145.90615272266007,146.06429877016117,144.1270624740028,145.00672912597656,318400
2024-05-29 00:00:00-04:00,143.95902565050832,144.99683837001,142.8322614331847,143.15843200683594,229700
2024-05-30 00:00:00-04:00,143.44506028410598,145.27357292324717,143.31656474476299,144.44332885742188,328100
2024-05-31 00:00:00-04:00,144.39392663795792,146.11373108609047,144.22590210684282,145.97535705566406,358900
2024-06-03 00:00:00-04:00,146.7759293844352,146.7759293844352,144.58170216286425,146.43988037109375,266200
2024-06-04 00:00:00-04:00,145.93580431313134,146.66721847706788,144.99683665672939,146.46954345703125,287900
2024-06-05 00:00:00-04:00,146.004992225281,146.4794152681214,145.3724231409483,146.20266723632812,229200
2024-06-06 00:00:00-04:00,146.29164523572513,146.29164523572513,143.71194590780613,144.2654571533203,197600
2024-06-07 00:00:00-04:00,144.07764602868986,144.63114213666276,143.76135392034087,143.86019897460938,179100
2024-06-10 00:00:00-04:00,143.14856332800792,144.11718156104808,142.3183191282592,143.8997344970703,125800
2024-06-11 00:00:00-04:00,143.22761395479523,144.04797955299966,142.6741179082082,143.81076049804688,147700
2024-06-12 00:00:00-04:00,144.5421912417399,144.61137071470716,142.39738627354959,144.13694763183594,221300
2024-06-13 00:00:00-04:00,144.1962486319901,144.82881776969768,143.33635396647895,144.13694763183594,232400
2024-06-14 00:00:00-04:00,143.40552229578694,143.69216388310844,142.01188857390807,143.06947326660156,141500
2024-06-17 00:00:00-04:00,143.18809286912386,144.9770768357704,142.891587854925,144.6311492919922,303800
2024-06-18 00:00:00-04:00,144.77940040456215,145.97535924965277,144.76952193139687,144.98696899414062,219900
2024-06-20 00:00:00-04:00,144.95732528922997,145.81722002571684,143.97881346100627,144.1171875,199900
2024-06-21 00:00:00-04:00,144.17647780130102,145.43173761432095,143.62298168641794,145.14511108398438,444100
2024-06-24 00:00:00-04:00,145.51079662914384,146.50906523437524,144.9671790395083,145.0166015625,182900
2024-06-25 00:00:00-04:00,145.0858087386305,145.0957022941003,142.82240153704439,143.17822265625,194500
2024-06-26 00:00:00-04:00,142.5752890234938,143.1090131055814,141.30027227750594,142.04156494140625,192400
2024-06-27 00:00:00-04:00,142.19969177246094,142.20958532660634,140.6182765178517,142.19969177246094,377300
2024-06-28 00:00:00-04:00,142.11073667041998,142.64447580506112,138.46357454970783,139.1752166748047,435100
2024-07-01 00:00:00-04:00,139.73860381061132,139.8374337763304,136.78331184165768,136.9315643310547,306400
2024-07-02 00:00:00-04:00,136.87228148950166,138.86883407413814,136.16063928273297,138.76998901367188,259400
2024-07-03 00:00:00-04:00,139.24442578198884,139.75837786256912,138.93802721197096,139.58047485351562,143300
2024-07-05 00:00:00-04:00,139.3531267279954,139.79789926017781,138.1077455399213,139.26416015625,207000
2024-07-08 00:00:00-04:00,140.00546997613023,140.8456077038611,139.8572174743603,139.86709594726562,249300
2024-07-09 00:00:00-04:00,139.22465658696336,139.62990022468333,138.12754276389157,138.41416931152344,238400
2024-07-10 00:00:00-04:00,139.1159340795226,139.98572236561142,138.9380310655348,139.649658203125,142000
2024-07-11 00:00:00-04:00,139.5606867595642,141.63631211608134,139.11591420649248,140.4403533935547,244500
2024-07-12 00:00:00-04:00,141.74503801439653,143.80089137946246,141.74503801439653,142.9113311767578,263900
2024-07-15 00:00:00-04:00,143.07934641832563,143.99855706001915,141.4781592715748,141.76478576660156,319900
2024-07-16 00:00:00-04:00,142.1799347609358,143.61309751906785,142.1799347609358,142.88168334960938,178800
2024-07-17 00:00:00-04:00,142.664255465922,144.07766146891413,142.664255465922,143.17822265625,242300
2024-07-18 00:00:00-04:00,142.93111614926795,145.5404658332678,142.92123767605455,144.58172607421875,434200
2024-07-19 00:00:00-04:00,144.88811409369237,144.88811409369237,142.98052826932252,144.24566650390625,251200
2024-07-22 00:00:00-04:00,144.2950901763646,145.8468549419873,143.56367600176816,145.4811553955078,235700
2024-07-23 00:00:00-04:00,146.15325355030274,146.78582267288365,143.9787981340331,144.34449768066406,234500
2024-07-24 00:00:00-04:00,144.37415352771848,144.92764958745448,142.22933367378678,142.466552734375,250600
2024-07-25 00:00:00-04:00,141.61388056304222,142.82349412420268,140.01758824897757,140.28529357910156,558100
2024-07-26 00:00:00-04:00,141.91134235428268,150.0018535567288,141.13798477705524,145.41128540039062,562800
2024-07-29 00:00:00-04:00,145.33195137969574,147.08688501084436,143.93395314591854,146.54156494140625,390900
2024-07-30 00:00:00-04:00,146.1251596506832,146.64072129488196,144.17193171371727,144.509033203125,411000
2024-07-31 00:00:00-04:00,145.25263730081585,147.5826344626497,144.17192165080326,145.72854614257812,280600
2024-08-01 00:00:00-04:00,145.6294051644924,148.2667452791598,144.19173898685514,145.7781219482422,335300
2024-08-02 00:00:00-04:00,145.33196076158256,145.74838289725324,142.5260547039466,144.4495391845703,213500
2024-08-05 00:00:00-04:00,142.20876295430418,142.20876295430418,138.2923981187251,139.482177734375,448500
2024-08-06 00:00:00-04:00,140.12666010258857,144.84612605962522,139.90853206270876,143.6959991455078,476000
2024-08-07 00:00:00-04:00,144.7668033320858,146.00616030060235,142.24843662876268,142.37733459472656,353600
2024-08-08 00:00:00-04:00,143.23002306021596,144.9155456324342,143.23002306021596,144.32064819335938,268600
2024-08-09 00:00:00-04:00,144.17192561722774,144.17192561722774,142.24844112073058,142.72434997558594,263200
2024-08-12 00:00:00-04:00,142.74419493783853,142.95239845902208,141.55441514446264,142.06997680664062,221100
2024-08-13 00:00:00-04:00,142.28808416097326,144.06285174677072,141.88158658819353,143.14076232910156,212000
2024-08-14 00:00:00-04:00,142.90282675451456,143.57702971191068,142.2682765650777,142.67477416992188,115700
2024-08-15 00:00:00-04:00,143.76540500975304,146.08547757001637,143.76540500975304,145.75828552246094,277500
2024-08-16 00:00:00-04:00,144.86595735680487,145.5897375874158,144.3702145713978,145.47076416015625,250600
2024-08-19 00:00:00-04:00,145.07416839392047,146.47215147769325,144.67756510902134,145.7186279296875,191200
2024-08-20 00:00:00-04:00,145.7285543796204,147.04723208948465,145.7285543796204,146.84893798828125,387200
2024-08-21 00:00:00-04:00,146.9084058947151,148.29649468313983,146.20445965625007,148.05853271484375,267300
2024-08-22 00:00:00-04:00,148.29649897357677,149.119418655564,147.40415291330078,147.721435546875,200400
2024-08-23 00:00:00-04:00,148.38573061829348,149.24831820308114,148.16760258760965,149.15908813476562,221400
2024-08-26 00:00:00-04:00,149.39703130560545,151.3700929422639,148.8616357800244,148.8814697265625,235500
2024-08-27 00:00:00-04:00,148.73274268377475,150.24971437286632,148.56419195486112,149.91261291503906,208300
2024-08-28 00:00:00-04:00,149.64491850383828,150.6760720286546,149.64491850383828,150.24972534179688,249000
2024-08-29 00:00:00-04:00,151.25111902263214,151.6080544148001,149.92253205745575,150.98341369628906,187100
2024-08-30 00:00:00-04:00,150.9040898039204,152.1335372681107,150.34886034553386,151.8856658935547,178500
2024-09-03 00:00:00-04:00,150.81487945978148,151.0825848153888,148.45513882422307,148.7624969482422,362400
2024-09-04 00:00:00-04:00,148.32625628172565,149.6151754974747,148.32625628172565,149.44662475585938,175800
2024-09-05 00:00:00-04:00,149.79365724908968,150.4678602446772,148.67327359768427,149.4367218017578,200600
2024-09-06 00:00:00-04:00,149.09960936644342,151.81627022791594,149.09960936644342,151.08258056640625,319100
2024-09-09 00:00:00-04:00,151.27096125808086,151.75677950677155,150.15057771843715,150.6165771484375,241500
2024-09-10 00:00:00-04:00,150.5769061073942,151.4890710007779,150.15057458142013,150.219970703125,158100
2024-09-11 00:00:00-04:00,149.50610201715665,149.59534721614267,147.36450469000576,149.55567932128906,178000
2024-09-12 00:00:00-04:00,149.60527129016722,150.71573039301214,148.69310629442026,150.66616821289062,200400
2024-09-13 00:00:00-04:00,150.89418363046417,151.7071938894272,150.60664435764832,150.98341369628906,138600
2024-09-16 00:00:00-04:00,151.73695536727533,151.86585334144058,150.7752282170744,151.68739318847656,182900
2024-09-17 00:00:00-04:00,152.6887777353895,154.24541734169188,150.57690863066836,151.72703552246094,259900
2024-09-18 00:00:00-04:00,152.45082073121614,154.1661017156208,151.40977295211567,151.76670837402344,214200
2024-09-19 00:00:00-04:00,153.7001042458282,157.45782806930177,153.7001042458282,155.5640869140625,412400
2024-09-20 00:00:00-04:00,154.97910770945106,154.97910770945106,153.16468729288619,154.58251953125,663300
2024-09-23 00:00:00-04:00,154.84031411268145,155.5740189493984,153.4224968770222,154.63211059570312,315800
2024-09-24 00:00:00-04:00,154.85022133258403,155.74256749362374,154.70150453684593,155.29640197753906,246200
2024-09-25 00:00:00-04:00,155.9606737832666,156.52581265708008,154.54284163664153,155.80203247070312,284100
2024-09-26 00:00:00-04:00,156.5952228396874,157.7056817623432,156.35726087246053,157.03147888183594,371600
2024-09-27 00:00:00-04:00,157.328936448012,160.17451056503216,156.91251428844402,158.5286407470703,354300
2024-09-30 00:00:00-04:00,157.9337342069797,159.0541177736619,157.57679878663924,158.82608032226562,289800
2024-10-01 00:00:00-04:00,159.17309486932874,159.17309486932874,157.69579097715877,158.6079559326172,192200
2024-10-02 00:00:00-04:00,158.49888025151608,158.74675163842707,156.61506376254013,157.39833068847656,186900
2024-10-03 00:00:00-04:00,156.6448226193374,159.09379337466362,155.30631094601907,157.58673095703125,367000
2024-10-04 00:00:00-04:00,158.57820314163436,160.0951748405605,157.97339634390852,159.21275329589844,350500
2024-10-07 00:00:00-04:00,158.03288882136707,158.28076022080637,156.66463385522383,157.33885192871094,223300
2024-10-08 00:00:00-04:00,156.93233673104928,157.66604150822695,155.7623910059796,157.3190155029297,205900
2024-10-09 00:00:00-04:00,157.0017440534526,158.68726647512585,156.77369148248292,158.34024047851562,152600
2024-10-10 00:00:00-04:00,156.70431294843368,158.02299070313978,156.70431294843368,157.86434936523438,168500
2024-10-11 00:00:00-04:00,159.56969269884854,160.54134433745546,158.98471983379017,160.17449951171875,194400
2024-10-14 00:00:00-04:00,163.5852142031253,166.3316184158374,162.06824244902612,165.7664794921875,469700
2024-10-15 00:00:00-04:00,165.8953685970174,168.21544114063033,165.07243377947222,167.2437744140625,397300
2024-10-16 00:00:00-04:00,167.26362187229932,167.75936468468248,164.50729304575864,164.6262664794922,330000
2024-10-17 00:00:00-04:00,165.55825476234426,166.88685691220647,165.10217987638853,166.46051025390625,238200
2024-10-18 00:00:00-04:00,167.66022858934807,167.66022858934807,166.35146027633778,167.19422912597656,171500
2024-10-21 00:00:00-04:00,167.03556624281273,167.0554001892339,164.8840444865993,164.91378784179688,217900
2024-10-22 00:00:00-04:00,164.30897855393837,164.9534380785036,163.40672311645255,164.39820861816406,228500
2024-10-23 00:00:00-04:00,165.09225649601052,166.54974149141003,164.74524562450105,166.22254943847656,318100
2024-10-24 00:00:00-04:00,167.3360272634068,167.34596334346625,165.17869949306117,165.5763702392578,547300
2024-10-25 00:00:00-04:00,167.93251298449576,168.85708420898575,163.64771113262861,167.92257690429688,518900
2024-10-28 00:00:00-04:00,168.90677660352304,170.40795901266992,167.77344152905084,168.11146545410156,350000
2024-10-29 00:00:00-04:00,168.04186356154042,168.49918111468077,166.65998999192092,167.7137908935547,338100
2024-10-30 00:00:00-04:00,167.365837397867,169.2050132557857,167.1371710483461,168.04185485839844,290300
2024-10-31 00:00:00-04:00,168.10151559431478,169.28456141780387,166.87871028086104,166.9284210205078,329900
2024-11-01 00:00:00-04:00,167.1173077923006,169.99041249178543,166.6401029092949,168.41964721679688,316300
2024-11-04 00:00:00-05:00,168.63835326758849,169.5728604846093,167.19681778581696,167.27635192871094,191800
2024-11-05 00:00:00-05:00,166.75940876542907,169.36408756835365,166.75940876542907,169.3143768310547,206200
2024-11-06 00:00:00-05:00,174.12607720394698,174.12607720394698,171.1336789501935,172.14772033691406,264100
2024-11-07 00:00:00-05:00,173.181646611338,174.43429052511567,172.5255012440819,173.6886749267578,412300
2024-11-08 00:00:00-05:00,173.67872771017315,176.8003711476738,173.4699638327543,174.73252868652344,309200
2024-11-11 00:00:00-05:00,175.28925880463905,176.98925382659786,174.87170073194585,175.1202392578125,189100
2024-11-12 00:00:00-05:00,175.61731015255344,176.20387258192108,173.92725126982972,174.67286682128906,179800
2024-11-13 00:00:00-05:00,174.4740447998047,175.358841343288,174.0266784880817,174.4740447998047,168400
2024-11-14 00:00:00-05:00,174.1260792518433,174.76233724971064,172.89333791386815,173.0822296142578,198200
2024-11-15 00:00:00-05:00,171.95883803361312,172.74421310778231,165.1985870354456,165.5167236328125,620500
2024-11-18 00:00:00-05:00,165.41729639704178,166.8389446164699,163.36934142392406,165.71554565429688,384400
2024-11-19 00:00:00-05:00,165.4471114616717,166.68980399623803,165.2283963620211,165.92430114746094,287600
2024-11-20 00:00:00-05:00,166.0237243293001,167.95238558996,164.6816103103004,167.7436065673828,221800
2024-11-21 00:00:00-05:00,167.70385605988977,169.23484668561179,166.7594127072336,168.88690185546875,205100
2024-11-22 00:00:00-05:00,169.1851280365974,171.0640937437833,169.1851280365974,170.50735473632812,241600
2024-11-25 00:00:00-05:00,171.04421085066338,173.00269558296904,170.73602551596537,171.4915771484375,270100
2024-11-26 00:00:00-05:00,171.8494695833421,171.8494695833421,170.1594107333063,171.0342559814453,140300
2024-11-27 00:00:00-05:00,171.66058147182153,172.863514571317,170.5173103589881,170.72607421875,167200
2024-11-29 00:00:00-05:00,171.58105098630867,172.475798770281,171.08397394063104,171.9488983154297,117300
2024-12-02 00:00:00-05:00,171.96877615604654,172.0980210464603,169.8412869370493,171.75006103515625,170900
2024-12-03 00:00:00-05:00,172.43603100929164,172.43603100929164,170.08982665305885,171.3921661376953,160100
2024-12-04 00:00:00-05:00,170.8851346455555,171.87928866994514,170.03016157779692,171.58103942871094,173400
2024-12-05 00:00:00-05:00,171.00443060854883,171.43192473305697,169.53308687985145,170.09976196289062,245000
2024-12-06 00:00:00-05:00,170.59685659660164,171.64070630857205,169.85124099114375,170.14947509765625,209200
2024-12-09 00:00:00-05:00,170.55706781377697,172.4559057058193,169.23484109589555,169.79156494140625,301700
2024-12-10 00:00:00-05:00,169.72198171524371,170.3681757840425,167.2067731662214,169.91087341308594,287000
2024-12-11 00:00:00-05:00,170.87520962188916,173.08223291239426,170.74596473608872,171.3026885986328,418600
2024-12-12 00:00:00-05:00,170.66643534840264,171.59100656487485,169.78163879155716,170.63661193847656,178300
2024-12-13 00:00:00-05:00,169.9108731433567,170.0003433675861,168.82724886434605,169.20501708984375,153200
2024-12-16 00:00:00-05:00,169.14537623604997,169.93075129239324,166.6102802730786,166.65005493164062,236100
2024-12-17 00:00:00-05:00,165.92430594872616,165.93425719782604,161.88804290679334,162.13658142089844,511900
2024-12-18 00:00:00-05:00,162.73307012741031,163.45879829743004,156.9868612407414,157.2851104736328,468600
2024-12-19 00:00:00-05:00,157.5833575869184,160.62548181083537,157.30499565839068,157.94125366210938,404700
2024-12-20 00:00:00-05:00,157.79213122023071,158.84593208069174,156.54943866410466,157.25527954101562,730200
2024-12-23 00:00:00-05:00,156.25120856101609,157.97109102193465,156.04244468097724,157.59332275390625,194900
2024-12-24 00:00:00-05:00,157.85178193027394,158.48803992792463,156.99680882378203,158.41845703125,100500
2024-12-26 00:00:00-05:00,157.49389256251334,158.69682571234515,157.49389256251334,157.92138671875,164500
2024-12-27 00:00:00-05:00,156.89740636546946,158.64711210951205,156.68862733115216,157.2254638671875,145000
2024-12-30 00:00:00-05:00,156.08219233162345,156.56933329740426,154.09388414905501,155.8137664794922,221700
2024-12-31 00:00:00-05:00,156.3605505582105,157.32488121747065,155.2669750158782,156.18161010742188,317100
2025-01-02 00:00:00-05:00,156.72839252644783,157.185710100866,152.55294821437124,153.25880432128906,239400
2025-01-03 00:00:00-05:00,153.13948602706847,154.8096727502242,151.97632758735028,154.59095764160156,250700
2025-01-06 00:00:00-05:00,153.09973502671437,153.7359930590029,150.55470289756022,152.0260467529297,369000
2025-01-07 00:00:00-05:00,155.00849961393402,155.14768057590888,151.70791601442164,152.53305053710938,361200
2025-01-08 00:00:00-05:00,151.9962268274809,153.35821315370148,151.20090047648944,153.2488555908203,228600
2025-01-10 00:00:00-05:00,151.82721973166167,153.39798507518267,151.68803876044274,152.55294799804688,350800
2025-01-13 00:00:00-05:00,152.0359771068211,153.7956340867136,152.0359771068211,152.99037170410156,349300
2025-01-14 00:00:00-05:00,153.90498927927354,154.54124727782627,152.58276254470874,153.70616149902344,196900
2025-01-15 00:00:00-05:00,155.2073280984785,156.00265438606107,153.26873070158723,154.65060424804688,206100
2025-01-16 00:00:00-05:00,154.97867164153726,156.2511875905712,154.40206048188332,155.49563598632812,346300
2025-01-17 00:00:00-05:00,156.05236593099147,157.0266326742892,154.76989868285017,155.17750549316406,231900
2025-01-21 00:00:00-05:00,155.8038403718219,159.32313940560152,155.8038403718219,158.89566040039062,270900
2025-01-22 00:00:00-05:00,158.40851689664757,159.8102778735962,157.41436275746503,158.14010620117188,280000
2025-01-23 00:00:00-05:00,157.53366714944022,158.87576609792737,156.80792372609613,158.68687438964844,149800
2025-01-24 00:00:00-05:00,158.7167022576702,159.53191593322802,156.30091498078272,157.37460327148438,329600
2025-01-27 00:00:00-05:00,157.32488185897995,157.9909632667212,155.7342292762991,157.53366088867188,317000
2025-01-28 00:00:00-05:00,156.64885939318168,159.41260641132604,156.64885939318168,157.49388122558594,204300
2025-01-29 00:00:00-05:00,157.85177902413062,157.89155368114433,155.70440263299878,156.19154357910156,265800
2025-01-30 00:00:00-05:00,156.89739634278104,157.75235424603278,155.66463988416228,157.20558166503906,274200
2025-01-31 00:00:00-05:00,156.97692354520834,158.45821858905546,155.8435884980408,156.23130798339844,834100
2025-02-03 00:00:00-05:00,153.67635126012962,155.83366395837336,153.23892100434037,155.0681610107422,364600
2025-02-04 00:00:00-05:00,155.17750279542165,157.53365822095677,155.17750279542165,156.77809143066406,302400
2025-02-05 00:00:00-05:00,157.80500592852968,159.1808694639931,157.30650641139053,157.8448944091797,262600
2025-02-06 00:00:00-05:00,159.36032545887605,159.36032545887605,154.90373846154537,155.98049926757812,446600
2025-02-07 00:00:00-05:00,157.14698952963298,157.4261480539418,141.61374209617057,142.7503204345703,1221500
2025-02-10 00:00:00-05:00,143.82707616274172,144.16606739852432,140.47715877681674,142.8500213623047,621900
2025-02-11 00:00:00-05:00,141.84306230491666,142.64066460552033,139.83908443286268,141.8629913330078,377300
2025-02-12 00:00:00-05:00,140.54695995402133,143.0594018671843,139.51007240312933,141.27476501464844,423500
2025-02-13 00:00:00-05:00,142.3216084945613,143.34851625650154,141.03548646703342,142.341552734375,665900
2025-02-14 00:00:00-05:00,143.25879419486012,144.87392776815435,142.291703911024,144.35548400878906,512800
2025-02-18 00:00:00-05:00,144.3554836483707,146.84798123698334,143.46815511534453,146.4591522216797,489600
2025-02-19 00:00:00-05:00,145.70143136206917,147.0473860798142,145.1730231159612,146.59872436523438,331000
2025-02-20 00:00:00-05:00,146.52894536038173,146.9775918711911,145.48209335982813,146.23980712890625,283100
2025-02-21 00:00:00-05:00,146.58876488867813,146.94768514487578,144.76425485408987,145.9008331298828,451900
2025-02-24 00:00:00-05:00,145.74131622506124,146.84798579729238,143.92678583496064,145.17303466796875,353300
2025-02-25 00:00:00-05:00,145.4422287732916,147.88487344502954,145.2827052714397,147.26673889160156,336700
2025-02-26 00:00:00-05:00,146.20990042662234,148.73230673413013,146.17999167301537,146.19993591308594,735600
2025-02-27 00:00:00-05:00,145.7911682131832,146.7383142771224,144.92378389956494,145.19297790527344,262800
2025-02-28 00:00:00-05:00,145.7213750809266,146.50899758418066,144.19596785319624,146.30960083007812,348700
2025-03-03 00:00:00-05:00,146.52894995212898,148.39333328655937,145.2527923994817,146.15008544921875,394100
2025-03-04 00:00:00-05:00,145.1032359275052,147.5060073037667,144.70444239027432,145.50204467773438,490100
2025-03-05 00:00:00-05:00,145.611710297946,148.40331060391404,145.611710297946,147.99453735351562,445100
2025-03-06 00:00:00-05:00,147.11717304129502,151.0453516164222,146.6186735310098,150.69639587402344,471700
2025-03-07 00:00:00-05:00,150.0583107451977,152.8997639185126,148.73230027851722,152.32150268554688,480200
2025-03-10 00:00:00-04:00,151.61364732434726,153.5378481186604,149.78913730361123,150.11814880371094,391100
2025-03-11 00:00:00-04:00,149.8888267707935,150.10816776894825,146.82804773599366,147.44618225097656,304000
2025-03-12 00:00:00-04:00,147.7951408956904,147.7951408956904,145.12317559878102,145.59176635742188,299700
2025-03-13 00:00:00-04:00,145.9706343400282,146.75825689461334,143.32857773374005,144.32557678222656,238400
2025-03-14 00:00:00-04:00,144.794162648578,146.44918466413756,144.10623089433952,146.21987915039062,223600
2025-03-17 00:00:00-04:00,146.070321262058,147.5558552817767,145.4222779828439,147.39633178710938,225200
2025-03-18 00:00:00-04:00,146.94768721147267,147.08726646790154,145.34251815604193,145.8609619140625,219900
2025-03-19 00:00:00-04:00,145.90083115561418,147.01748038922892,145.033446886956,146.53890991210938,279600
2025-03-20 00:00:00-04:00,145.69146868943292,146.97759070528392,143.29866196243475,144.76425170898438,332800
2025-03-21 00:00:00-04:00,143.56785998918545,145.02348526335044,141.93278219227298,144.38540649414062,601900
2025-03-24 00:00:00-04:00,145.31261503506718,147.73531548264066,144.47513946402933,147.5458984375,463800
2025-03-25 00:00:00-04:00,148.04439179735843,148.78216134501378,145.492061495503,146.7682342529297,325200
2025-03-26 00:00:00-04:00,146.6087032743572,148.25374550865783,145.86095403822105,148.11416625976562,630400
2025-03-27 00:00:00-04:00,147.8350134389575,149.440182469356,146.58876466420705,148.9018096923828,312700
2025-03-28 00:00:00-04:00,148.84197775587825,149.54985375738224,145.32257241449435,146.4890594482422,239800
2025-03-31 00:00:00-04:00,146.14012158000415,148.6425837017943,145.66156629890042,147.93472290039062,372500
2025-04-01 00:00:00-04:00,148.4332163754348,149.57975914322728,146.93771787153293,148.65255737304688,240000
2025-04-02 00:00:00-04:00,147.55585600763254,150.67646783054786,147.55585600763254,150.07826232910156,247600
2025-04-03 00:00:00-04:00,146.3195746053817,149.59970998804292,146.020487061794,148.22384643554688,352900
2025-04-04 00:00:00-04:00,144.7842069805911,147.51598992450744,139.6197438580484,139.7593231201172,531600
2025-04-07 00:00:00-04:00,135.93084140592794,141.69349446811458,130.45732657599152,134.24591064453125,629900
2025-04-08 00:00:00-04:00,136.96773353479517,138.89193438750297,130.88603328111085,133.25889587402344,473800
2025-04-09 00:00:00-04:00,132.78031698444616,143.98659100732078,130.92591348430386,143.318603515625,491800
2025-04-10 00:00:00-04:00,139.57985644639962,142.9397381227003,137.15715624031853,140.3375701904297,309000
2025-04-11 00:00:00-04:00,140.44725356020112,144.27574153554556,139.32065496045252,143.6775360107422,203000
2025-04-14 00:00:00-04:00,145.3624577536972,145.960648028002,143.35848002033282,145.35247802734375,249300
2025-04-15 00:00:00-04:00,145.6615629162898,146.10022970619906,143.3385533739851,143.50804138183594,250700
2025-04-16 00:00:00-04:00,143.62768355266928,145.3824116517308,142.1421646750757,144.5648651123047,307700
2025-04-17 00:00:00-04:00,144.96365707653248,145.32257734625065,140.28774426928518,143.39837646484375,390600
2025-04-21 00:00:00-04:00,142.86997067894183,143.6177199861802,140.67657575364237,142.15213012695312,291600
2025-04-22 00:00:00-04:00,144.06635958554864,146.3794046333826,143.1590868187001,145.58180236816406,217800
2025-04-23 00:00:00-04:00,147.42624515026344,148.8719059480152,146.77820185078718,147.605712890625,537000
2025-04-24 00:00:00-04:00,147.486057377051,151.54385068107933,145.02348379944135,151.00547790527344,424500
2025-04-25 00:00:00-04:00,150.39730765644694,152.54084945575687,147.12715210084048,148.6126708984375,220500
2025-04-28 00:00:00-04:00,149.3504536661458,150.5767581799842,147.83501092220882,149.25074768066406,235200
2025-04-29 00:00:00-04:00,149.31056526597925,151.5239042704703,148.5628160134619,149.8489532470703,359900
2025-04-30 00:00:00-04:00,148.62265120727602,149.53988848007702,146.7682324216355,149.5,556200
2025-05-01 00:00:00-04:00,148.4499969482422,150.52999877929688,146.9600067138672,148.27999877929688,445300
2025-05-02 00:00:00-04:00,152.99000549316406,153.0,147.7899932861328,152.0,431600
2025-05-05 00:00:00-04:00,151.42999267578125,153.22000122070312,150.8800048828125,151.47999572753906,267600
2025-05-06 00:00:00-04:00,150.25,152.0399932861328,149.4199981689453,150.9199981689453,312000
2025-05-07 00:00:00-04:00,151.8800048828125,153.14999389648438,150.6199951171875,151.38999938964844,318400
2025-05-08 00:00:00-04:00,151.7899932861328,154.57000732421875,151.24000549316406,153.36000061035156,302500
2025-05-09 00:00:00-04:00,153.91000366210938,154.3000030517578,152.94000244140625,153.32000732421875,231600
2025-05-12 00:00:00-04:00,155.7899932861328,156.58999633789062,153.6999969482422,155.52000427246094,352500
2025-05-13 00:00:00-04:00,156.30999755859375,156.30999755859375,153.1999969482422,153.63999938964844,339400
2025-05-14 00:00:00-04:00,153.6199951171875,153.6199951171875,150.97000122070312,152.47999572753906,350100
2025-05-15 00:00:00-04:00,152.35000610351562,155.47999572753906,152.35000610351562,154.9499969482422,278100
2025-05-16 00:00:00-04:00,155.17999267578125,157.14999389648438,154.58999633789062,157.00999450683594,278600
2025-05-19 00:00:00-04:00,156.36000061035156,158.33999633789062,156.30999755859375,158.0800018310547,185400
2025-05-20 00:00:00-04:00,160.25999450683594,160.25999450683594,157.91000366210938,158.52999877929688,388100
2025-05-21 00:00:00-04:00,156.86000061035156,157.64999389648438,155.8300018310547,156.4499969482422,319800
2025-05-22 00:00:00-04:00,156.36000061035156,157.25999450683594,155.55999755859375,156.64999389648438,278900
2025-05-23 00:00:00-04:00,155.1199951171875,156.17999267578125,154.25999450683594,155.94000244140625,260500
2025-05-27 00:00:00-04:00,157.02999877929688,158.44000244140625,156.69000244140625,158.16000366210938,352800
2025-05-28 00:00:00-04:00,158.16000366210938,158.83999633789062,157.25999450683594,157.39999389648438,364400
2025-05-29 00:00:00-04:00,157.8300018310547,158.6699981689453,156.82000732421875,158.3300018310547,232100
2025-05-30 00:00:00-04:00,158.24000549316406,158.77999877929688,156.5399932861328,158.39999389648438,335100
2025-06-02 00:00:00-04:00,157.5399932861328,159.07000732421875,155.25999450683594,156.91000366210938,349600
2025-06-03 00:00:00-04:00,156.17999267578125,157.44000244140625,156.0,156.25999450683594,397800
2025-06-04 00:00:00-04:00,156.49000549316406,156.52000427246094,150.2899932861328,150.41000366210938,831900
2025-06-05 00:00:00-04:00,151.5800018310547,153.33999633789062,149.0500030517578,152.49000549316406,482400
2025-06-06 00:00:00-04:00,154.3699951171875,154.47999572753906,152.2100067138672,153.30999755859375,264700
2025-06-09 00:00:00-04:00,152.7100067138672,153.17999267578125,151.36000061035156,151.60000610351562,388400
2025-06-10 00:00:00-04:00,152.16000366210938,153.0,150.86000061035156,152.52999877929688,323500
2025-06-11 00:00:00-04:00,153.0,153.58999633789062,151.60000610351562,151.9199981689453,380800
2025-06-12 00:00:00-04:00,151.41000366210938,154.6199951171875,151.41000366210938,154.35000610351562,337200
2025-06-13 00:00:00-04:00,153.0,153.72000122070312,150.72999572753906,151.16000366210938,361200
2025-06-16 00:00:00-04:00,151.24000549316406,152.89999389648438,151.1199951171875,151.69000244140625,346200
2025-06-17 00:00:00-04:00,150.66000366210938,151.25999450683594,149.1300048828125,149.4499969482422,379700
2025-06-18 00:00:00-04:00,149.1199951171875,150.72999572753906,149.1199951171875,149.6999969482422,383200
2025-06-20 00:00:00-04:00,150.2899932861328,150.77000427246094,148.99000549316406,150.3000030517578,570500
2025-06-23 00:00:00-04:00,149.49000549316406,153.94000244140625,149.49000549316406,153.7899932861328,356500
2025-06-24 00:00:00-04:00,154.57000732421875,154.57000732421875,153.17999267578125,153.8699951171875,246600
2025-06-25 00:00:00-04:00,153.86000061035156,154.52999877929688,152.77000427246094,153.92999267578125,264700
2025-06-26 00:00:00-04:00,154.52999877929688,155.5800018310547,153.1199951171875,154.47999572753906,658200
2025-06-27 00:00:00-04:00,154.66000366210938,156.11000061035156,154.22999572753906,155.82000732421875,643100
2025-06-30 00:00:00-04:00,156.02999877929688,156.5,154.61000061035156,156.42999267578125,315500
2025-07-01 00:00:00-04:00,156.42999267578125,159.8000030517578,155.9600067138672,159.00999450683594,338300
2025-07-02 00:00:00-04:00,159.02000427246094,160.52999877929688,158.64999389648438,160.32000732421875,293500
2025-07-03 00:00:00-04:00,160.60000610351562,161.36000061035156,159.82000732421875,161.0399932861328,235100
2025-07-07 00:00:00-04:00,160.9499969482422,162.3699951171875,160.5500030517578,160.9600067138672,313900
2025-07-08 00:00:00-04:00,160.89999389648438,162.5800018310547,159.85000610351562,160.0500030517578,342700
